"Time (ms)","Recording (a.u.)"
0.000000000E0,9.409604594E-3
2.083412250E-2,2.444291115E-2
4.166824501E-2,3.707905486E-2
6.250236751E-2,4.461147636E-2
8.333649002E-2,5.088123679E-2
1.041706125E-1,5.850050598E-2
1.250047350E-1,6.742043793E-2
1.458388575E-1,7.874362916E-2
1.666729800E-1,9.092237055E-2
1.875071025E-1,1.019536927E-1
2.083412250E-1,1.113137305E-1
2.291753476E-1,1.183131933E-1
2.500094701E-1,1.236969829E-1
2.708435926E-1,1.315565705E-1
2.916777151E-1,1.420714557E-1
3.125118376E-1,1.494999677E-1
3.333459601E-1,1.518057138E-1
3.541800826E-1,1.526618600E-1
3.750142051E-1,1.554586440E-1
3.958483276E-1,1.569709182E-1
4.166824501E-1,1.539944857E-1
4.375165726E-1,1.514578462E-1
4.583506951E-1,1.536301374E-1
4.791848176E-1,1.598316133E-1
5.000189401E-1,1.687472910E-1
5.208530626E-1,1.760710776E-1
5.416871851E-1,1.793216169E-1
5.625213076E-1,1.822044402E-1
5.833554301E-1,1.884495616E-1
6.041895526E-1,1.970237494E-1
6.250236751E-1,2.001627982E-1
6.458577976E-1,1.950344443E-1
6.666919201E-1,1.894034892E-1
6.875260427E-1,1.892666966E-1
7.083601652E-1,1.941086799E-1
7.291942877E-1,1.988252699E-1
7.500284102E-1,1.983843446E-1
7.708625327E-1,1.961618811E-1
7.916966552E-1,1.964268386E-1
8.125307777E-1,1.970237792E-1
8.333649002E-1,1.968767196E-1
8.541990227E-1,1.960922629E-1
8.750331452E-1,1.938852668E-1
8.958672677E-1,1.885133982E-1
9.167013902E-1,1.790425032E-1
9.375355127E-1,1.682440042E-1
9.583696352E-1,1.566371620E-1
9.792037577E-1,1.431021392E-1
1.000037880E0,1.299556047E-1
1.020872003E0,1.164243519E-1
1.041706125E0,1.013200805E-1
1.062540248E0,8.738879114E-2
1.083374370E0,7.519048452E-2
1.104208493E0,6.385315210E-2
1.125042615E0,5.111111701E-2
1.145876738E0,3.713024408E-2
1.166710860E0,2.478531934E-2
1.187544983E0,1.538874768E-2
1.208379105E0,1.147545688E-2
1.229213228E0,1.134389825E-2
1.250047350E0,1.418796461E-2
1.270881473E0,2.172306180E-2
1.291715595E0,2.889075503E-2
1.312549718E0,2.979672514E-2
1.333383840E0,2.206404507E-2
1.354217963E0,1.079475880E-2
1.375052085E0,1.499463455E-3
1.395886208E0,-8.572682738E-3
1.416720330E0,-2.109338343E-2
1.437554453E0,-3.409431130E-2
1.458388575E0,-4.276333377E-2
1.479222698E0,-4.594648629E-2
1.500056820E0,-5.013035983E-2
1.520890943E0,-5.779933929E-2
1.541725065E0,-6.604457647E-2
1.562559188E0,-7.076448947E-2
1.583393310E0,-6.909160316E-2
1.604227433E0,-6.291802973E-2
1.625061555E0,-5.869163200E-2
1.645895678E0,-6.271378696E-2
1.666729800E0,-7.264234871E-2
1.687563923E0,-7.740121335E-2
1.708398045E0,-7.084978372E-2
1.729232168E0,-6.340785325E-2
1.750066290E0,-6.866706908E-2
1.770900413E0,-8.533027768E-2
1.791734535E0,-1.016985923E-1
1.812568658E0,-1.104332507E-1
1.833402780E0,-1.157911569E-1
1.854236903E0,-1.191744059E-1
1.875071025E0,-1.150838733E-1
1.895905148E0,-1.038789228E-1
1.916739270E0,-9.024356306E-2
1.937573393E0,-8.264066279E-2
1.958407515E0,-8.678953350E-2
1.979241638E0,-9.574300051E-2
2.000075760E0,-9.838854522E-2
2.020909883E0,-9.012628347E-2
2.041744005E0,-7.462060452E-2
2.062578128E0,-6.068859622E-2
2.083412250E0,-5.504530668E-2
2.104246373E0,-5.762613565E-2
2.125080495E0,-6.053747237E-2
2.145914618E0,-5.672972277E-2
2.166748740E0,-5.090793595E-2
2.187582863E0,-5.119474605E-2
2.208416985E0,-6.006322056E-2
2.229251108E0,-7.265868038E-2
2.250085231E0,-7.948333025E-2
2.270919353E0,-7.740678638E-2
2.291753476E0,-7.272050530E-2
2.312587598E0,-7.138065994E-2
2.333421721E0,-7.273203135E-2
2.354255843E0,-7.196596265E-2
2.375089966E0,-6.705399603E-2
2.395924088E0,-5.998324975E-2
2.416758211E0,-5.042588711E-2
2.437592333E0,-4.120584205E-2
2.458426456E0,-3.711174428E-2
2.479260578E0,-3.607355058E-2
2.500094701E0,-3.402999789E-2
2.520928823E0,-2.809021436E-2
2.541762946E0,-2.108527347E-2
2.562597068E0,-1.716054790E-2
2.583431191E0,-1.672036946E-2
2.604265313E0,-2.042993158E-2
2.625099436E0,-2.390048653E-2
2.645933558E0,-2.590355091E-2
2.666767681E0,-2.935055643E-2
2.687601803E0,-3.460656106E-2
2.708435926E0,-3.942673653E-2
2.729270048E0,-3.682354465E-2
2.750104171E0,-2.702460252E-2
2.770938293E0,-1.439860743E-2
2.791772416E0,-1.759261009E-3
2.812606538E0,8.415774442E-3
2.833440661E0,1.531426143E-2
2.854274783E0,1.429596730E-2
2.875108906E0,8.748542517E-3
2.895943028E0,8.836525492E-3
2.916777151E0,1.650832966E-2
2.937611273E0,2.571338601E-2
2.958445396E0,2.925486490E-2
2.979279518E0,3.096311539E-2
3.000113641E0,3.781598434E-2
3.020947763E0,4.667284340E-2
3.041781886E0,5.083449185E-2
3.062616008E0,4.853770882E-2
3.083450131E0,4.644168168E-2
3.104284253E0,5.282447115E-2
3.125118376E0,6.913252920E-2
3.145952498E0,8.757343888E-2
3.166786621E0,9.796704352E-2
3.187620743E0,1.011851504E-1
3.208454866E0,1.029888839E-1
3.229288988E0,1.028815955E-1
3.250123111E0,9.635794908E-2
3.270957233E0,8.256170899E-2
3.291791356E0,7.045367360E-2
3.312625478E0,6.670336425E-2
3.333459601E0,6.910528243E-2
3.354293723E0,7.330544293E-2
3.375127846E0,7.457151264E-2
3.395961968E0,7.256688923E-2
3.416796091E0,6.798955798E-2
3.437630213E0,6.034031883E-2
3.458464336E0,5.298101157E-2
3.479298458E0,5.294766277E-2
3.500132581E0,6.362757087E-2
3.520966703E0,8.010858297E-2
3.541800826E0,9.763976932E-2
3.562634948E0,1.096896306E-1
3.583469071E0,1.113506407E-1
3.604303193E0,1.058562398E-1
3.625137316E0,9.429784864E-2
3.645971438E0,7.958547771E-2
3.666805561E0,6.877179444E-2
3.687639683E0,6.529620290E-2
3.708473806E0,6.671456993E-2
3.729307928E0,6.748106331E-2
3.750142051E0,6.813202798E-2
3.770976173E0,7.128444314E-2
3.791810296E0,7.662647218E-2
3.812644418E0,8.303026855E-2
3.833478541E0,8.721960336E-2
3.854312663E0,9.111452103E-2
3.875146786E0,9.942486882E-2
3.895980908E0,1.139304563E-1
3.916815031E0,1.316048801E-1
3.937649153E0,1.458758116E-1
3.958483276E0,1.565095782E-1
3.979317398E0,1.611502171E-1
4.000151521E0,1.571382582E-1
4.020985643E0,1.492794156E-1
4.041819766E0,1.409998983E-1
4.062653888E0,1.351754069E-1
4.083488011E0,1.324714422E-1
4.104322133E0,1.333162189E-1
4.125156256E0,1.392537802E-1
4.145990378E0,1.467394084E-1
4.166824501E0,1.541821212E-1
4.187658623E0,1.609922051E-1
4.208492746E0,1.637165248E-1
4.229326868E0,1.655418575E-1
4.250160991E0,1.739637554E-1
4.270995113E0,1.897226125E-1
4.291829236E0,2.068299949E-1
4.312663358E0,2.180942893E-1
4.333497481E0,2.206333131E-1
4.354331603E0,2.182671726E-1
4.375165726E0,2.169699371E-1
4.395999848E0,2.158557028E-1
4.416833971E0,2.105928808E-1
4.437668093E0,2.018572688E-1
4.458502216E0,1.943115443E-1
4.479336338E0,1.904919893E-1
4.500170461E0,1.874908805E-1
4.521004584E0,1.843227446E-1
4.541838706E0,1.847248971E-1
4.562672829E0,1.913581789E-1
4.583506951E0,2.000277638E-1
4.604341074E0,2.054110169E-1
4.625175196E0,2.091643065E-1
4.646009319E0,2.152689695E-1
4.666843441E0,2.237613648E-1
4.687677564E0,2.270271629E-1
4.708511686E0,2.190918028E-1
4.729345809E0,2.070781440E-1
4.750179931E0,1.994414032E-1
4.771014054E0,1.953134537E-1
4.791848176E0,1.915070117E-1
4.812682299E0,1.867459416E-1
4.833516421E0,1.821916103E-1
4.854350544E0,1.804732382E-1
4.875184666E0,1.797887236E-1
4.896018789E0,1.761163324E-1
4.916852911E0,1.677497625E-1
4.937687034E0,1.558362544E-1
4.958521156E0,1.448036134E-1
4.979355279E0,1.364274323E-1
5.000189401E0,1.297844648E-1
5.021023524E0,1.255291849E-1
5.041857646E0,1.220702380E-1
5.062691769E0,1.160218865E-1
5.083525891E0,1.067089140E-1
5.104360014E0,9.787544608E-2
5.125194136E0,9.360450506E-2
5.146028259E0,9.202608466E-2
5.166862381E0,8.915453404E-2
5.187696504E0,8.375732601E-2
5.208530626E0,7.822337747E-2
5.229364749E0,7.759334892E-2
5.250198871E0,8.115101606E-2
5.271032994E0,8.325546980E-2
5.291867116E0,8.247545362E-2
5.312701239E0,8.051484823E-2
5.333535361E0,7.841216773E-2
5.354369484E0,7.518459857E-2
5.375203606E0,7.041474432E-2
5.396037729E0,6.647416204E-2
5.416871851E0,6.480038911E-2
5.437705974E0,6.330297887E-2
5.458540096E0,5.562060326E-2
5.479374219E0,4.161063582E-2
5.500208341E0,2.937025763E-2
5.521042464E0,2.271868289E-2
5.541876586E0,2.303243056E-2
5.562710709E0,2.733862400E-2
5.583544831E0,3.210784495E-2
5.604378954E0,3.845943511E-2
5.625213076E0,4.424206167E-2
5.646047199E0,4.981493950E-2
5.666881321E0,5.390037224E-2
5.687715444E0,5.235210434E-2
5.708549566E0,4.782934487E-2
5.729383689E0,4.297098517E-2
5.750217811E0,4.046785086E-2
5.771051934E0,4.126233980E-2
5.791886056E0,4.049981385E-2
5.812720179E0,3.692095727E-2
5.833554301E0,3.065283597E-2
5.854388424E0,1.933353022E-2
5.875222546E0,4.616216756E-3
5.896056669E0,-8.245402947E-3
5.916890791E0,-1.560130250E-2
5.937724914E0,-1.896828786E-2
5.958559036E0,-2.184095606E-2
5.979393159E0,-2.456770465E-2
6.000227281E0,-2.851721644E-2
6.021061404E0,-3.536027670E-2
6.041895526E0,-4.373152554E-2
6.062729649E0,-4.922832549E-2
6.083563771E0,-4.696115851E-2
6.104397894E0,-4.046241939E-2
6.125232016E0,-3.366528824E-2
6.146066139E0,-2.628639713E-2
6.166900261E0,-2.028829418E-2
6.187734384E0,-1.768867671E-2
6.208568506E0,-2.075595967E-2
6.229402629E0,-2.703770995E-2
6.250236751E0,-3.206993639E-2
6.271070874E0,-3.872352093E-2
6.291904996E0,-4.686988145E-2
6.312739119E0,-5.027748272E-2
6.333573241E0,-4.809115827E-2
6.354407364E0,-4.379471764E-2
6.375241486E0,-3.979347274E-2
6.396075609E0,-3.485924378E-2
6.416909731E0,-2.816815674E-2
6.437743854E0,-2.187828533E-2
6.458577976E0,-1.323380787E-2
6.479412099E0,-7.778205909E-4
6.500246221E0,1.173831895E-2
6.521080344E0,2.281702310E-2
6.541914466E0,2.970431373E-2
6.562748589E0,3.170075640E-2
6.583582711E0,3.051474318E-2
6.604416834E0,2.859563753E-2
6.625250956E0,3.015283309E-2
6.646085079E0,3.254758567E-2
6.666919201E0,3.289681673E-2
6.687753324E0,3.534933925E-2
6.708587446E0,4.150914401E-2
6.729421569E0,4.739518464E-2
6.750255692E0,4.935000837E-2
6.771089814E0,4.809480160E-2
6.791923937E0,4.662911221E-2
6.812758059E0,4.761386663E-2
6.833592182E0,5.291195214E-2
6.854426304E0,5.977745727E-2
6.875260427E0,6.544813514E-2
6.896094549E0,6.847106665E-2
6.916928672E0,6.739753485E-2
6.937762794E0,6.606195122E-2
6.958596917E0,6.594106555E-2
6.979431039E0,6.670519710E-2
7.000265162E0,6.820707023E-2
7.021099284E0,6.837245077E-2
7.041933407E0,6.854771823E-2
7.062767529E0,6.916768104E-2
7.083601652E0,6.992004812E-2
7.104435774E0,7.000955939E-2
7.125269897E0,6.798662245E-2
7.146104019E0,6.352592260E-2
7.166938142E0,5.764528364E-2
7.187772264E0,5.362553895E-2
7.208606387E0,5.105611309E-2
7.229440509E0,4.884385318E-2
7.250274632E0,4.713886976E-2
7.271108754E0,4.646945745E-2
7.291942877E0,4.992469773E-2
7.312776999E0,5.518920720E-2
7.333611122E0,5.631303042E-2
7.354445244E0,4.912441969E-2
7.375279367E0,3.486032039E-2
7.396113489E0,1.862432621E-2
7.416947612E0,3.947926685E-3
7.437781734E0,-5.073326174E-3
7.458615857E0,-8.824912831E-3
7.479449979E0,-9.710473940E-3
7.500284102E0,-9.063621983E-3
7.521118224E0,-9.939994663E-3
7.541952347E0,-1.320881955E-2
7.562786469E0,-1.698270813E-2
7.583620592E0,-1.750926115E-2
7.604454714E0,-1.436598506E-2
7.625288837E0,-1.042295154E-2
7.646122959E0,-4.847753793E-3
7.666957082E0,2.099874429E-3
7.687791204E0,7.463434245E-3
7.708625327E0,8.714292198E-3
7.729459449E0,4.734991118E-3
7.750293572E0,-2.000553068E-3
7.771127694E0,-8.163158782E-3
7.791961817E0,-1.061555836E-2
7.812795939E0,-8.627705276E-3
7.833630062E0,-5.893022753E-3
7.854464184E0,-1.224511885E-3
7.875298307E0,6.726925261E-3
7.896132429E0,1.023062132E-2
7.916966552E0,4.942022264E-3
7.937800674E0,-5.125215743E-3
7.958634797E0,-1.154695451E-2
7.979468919E0,-9.748554789E-3
8.000303042E0,-5.069552921E-3
8.021137164E0,-2.752836095E-3
8.041971287E0,-3.381059971E-3
8.062805409E0,-5.232609808E-3
8.083639532E0,-6.012833677E-3
8.104473654E0,-5.615459755E-3
8.125307777E0,-8.518266492E-3
8.146141899E0,-1.615487039E-2
8.166976022E0,-2.200493775E-2
8.187810144E0,-2.190491557E-2
8.208644267E0,-1.753540523E-2
8.229478389E0,-1.503494661E-2
8.250312512E0,-1.728923246E-2
8.271146634E0,-1.953241229E-2
8.291980757E0,-1.766458713E-2
8.312814879E0,-1.063545793E-2
8.333649002E0,-3.799720667E-3
8.354483124E0,-5.502698943E-3
8.375317247E0,-1.799953729E-2
8.396151369E0,-3.675966710E-2
8.416985492E0,-5.065488070E-2
8.437819614E0,-5.357620120E-2
8.458653737E0,-5.239681900E-2
8.479487859E0,-5.273814872E-2
8.500321982E0,-5.214434117E-2
8.521156104E0,-4.895711690E-2
8.541990227E0,-4.719632864E-2
8.562824349E0,-4.963889718E-2
8.583658472E0,-5.036634207E-2
8.604492594E0,-4.591833055E-2
8.625326717E0,-4.319927096E-2
8.646160839E0,-4.616219550E-2
8.666994962E0,-4.898740351E-2
8.687829084E0,-4.491470754E-2
8.708663207E0,-3.577860445E-2
8.729497329E0,-2.659657039E-2
8.750331452E0,-1.654453948E-2
8.771165574E0,-6.806383375E-3
8.791999697E0,-2.819651971E-3
8.812833819E0,-4.842814524E-3
8.833667942E0,-4.771607462E-3
8.854502064E0,5.809783470E-3
8.875336187E0,2.163169347E-2
8.896170309E0,2.957090363E-2
8.917004432E0,2.582991309E-2
8.937838554E0,1.759099774E-2
8.958672677E0,1.580932178E-2
8.979506799E0,2.290846966E-2
9.000340922E0,3.013444133E-2
9.021175045E0,2.712170035E-2
9.042009167E0,1.251107454E-2
9.062843290E0,-3.639524803E-3
9.083677412E0,-1.392929442E-2
9.104511535E0,-1.951975748E-2
9.125345657E0,-2.415086888E-2
9.146179780E0,-3.204166144E-2
9.167013902E0,-4.587931931E-2
9.187848025E0,-6.202685833E-2
9.208682147E0,-7.429278642E-2
9.229516270E0,-8.147118986E-2
9.250350392E0,-8.355915546E-2
9.271184515E0,-8.125296980E-2
9.292018637E0,-7.779804617E-2
9.312852760E0,-7.568044960E-2
9.333686882E0,-7.753384113E-2
9.354521005E0,-8.177983761E-2
9.375355127E0,-8.273471147E-2
9.396189250E0,-7.749964297E-2
9.417023372E0,-7.026834786E-2
9.437857495E0,-6.737914681E-2
9.458691617E0,-6.650583446E-2
9.479525740E0,-6.248109788E-2
9.500359862E0,-5.678114295E-2
9.521193985E0,-5.645877123E-2
9.542028107E0,-6.441169232E-2
9.562862230E0,-7.323586941E-2
9.583696352E0,-7.664883882E-2
9.604530475E0,-7.781758904E-2
9.625364597E0,-8.450348675E-2
9.646198720E0,-9.856517613E-2
9.667032842E0,-1.109714955E-1
9.687866965E0,-1.124926507E-1
9.708701087E0,-1.032899171E-1
9.729535210E0,-9.134675562E-2
9.750369332E0,-8.307811618E-2
9.771203455E0,-7.989127934E-2
9.792037577E0,-8.313120902E-2
9.812871700E0,-9.024938196E-2
9.833705822E0,-9.505393356E-2
9.854539945E0,-9.849371016E-2
9.875374067E0,-1.062474251E-1
9.896208190E0,-1.198956743E-1
9.917042312E0,-1.366285980E-1
9.937876435E0,-1.491111964E-1
9.958710557E0,-1.521672308E-1
9.979544680E0,-1.502715051E-1
1.000037880E1,-1.519293785E-1
1.002121292E1,-1.587608606E-1
1.004204705E1,-1.642957181E-1
1.006288117E1,-1.631680429E-1
1.008371529E1,-1.567070037E-1
1.010454941E1,-1.452977955E-1
1.012538354E1,-1.268842071E-1
1.014621766E1,-1.069819033E-1
1.016705178E1,-9.075689316E-2
1.018788590E1,-7.514242083E-2
1.020872003E1,-5.523647368E-2
1.022955415E1,-3.203585371E-2
1.025038827E1,-1.263290737E-2
1.027122239E1,-1.825132640E-4
1.029205652E1,6.003481802E-3
1.031289064E1,7.744347211E-3
1.033372476E1,5.415308755E-3
1.035455888E1,-1.837247983E-3
1.037539301E1,-6.602845155E-3
1.039622713E1,-2.463188488E-3
1.041706125E1,4.811325110E-3
1.043789537E1,3.270609304E-3
1.045872950E1,-7.016560994E-3
1.047956362E1,-1.140386797E-2
1.050039774E1,-7.673853077E-3
1.052123186E1,-5.381585099E-3
1.054206599E1,-7.465040311E-3
1.056290011E1,-8.671053685E-3
1.058373423E1,-2.517537214E-3
1.060456835E1,6.720407866E-3
1.062540248E1,1.143272407E-2
1.064623660E1,1.395341195E-2
1.066707072E1,2.198136412E-2
1.068790484E1,3.499583900E-2
1.070873897E1,4.324182123E-2
1.072957309E1,4.218278453E-2
1.075040721E1,3.807395697E-2
1.077124133E1,4.197076336E-2
1.079207546E1,5.231966823E-2
1.081290958E1,5.631779507E-2
1.083374370E1,5.030788481E-2
1.085457782E1,4.008816555E-2
1.087541195E1,3.368017077E-2
1.089624607E1,3.232169151E-2
1.091708019E1,3.100162931E-2
1.093791431E1,3.000403941E-2
1.095874844E1,3.141770512E-2
1.097958256E1,3.356516361E-2
1.100041668E1,3.250568360E-2
1.102125080E1,2.726649120E-2
1.104208493E1,2.445875108E-2
1.106291905E1,2.883392200E-2
1.108375317E1,3.906819597E-2
1.110458729E1,5.134329200E-2
1.112542142E1,6.256092340E-2
1.114625554E1,7.147090137E-2
1.116708966E1,7.511964440E-2
1.118792378E1,7.383015752E-2
1.120875791E1,7.162769139E-2
1.122959203E1,7.357072830E-2
1.125042615E1,8.159587532E-2
1.127126028E1,8.826693892E-2
1.129209440E1,8.415770531E-2
1.131292852E1,6.968733668E-2
1.133376264E1,5.931937695E-2
1.135459677E1,6.371484697E-2
1.137543089E1,7.443497330E-2
1.139626501E1,7.770331204E-2
1.141709913E1,7.053536922E-2
1.143793326E1,6.378803402E-2
1.145876738E1,6.760317087E-2
1.147960150E1,7.932019979E-2
1.150043562E1,8.650996536E-2
1.152126975E1,7.571736723E-2
1.154210387E1,5.099323392E-2
1.156293799E1,3.170860559E-2
1.158377211E1,2.860761434E-2
1.160460624E1,3.323976323E-2
1.162544036E1,3.041759133E-2
1.164627448E1,1.763870008E-2
1.166710860E1,3.962735645E-3
1.168794273E1,-5.271902774E-3
1.170877685E1,-1.126616076E-2
1.172961097E1,-1.458788663E-2
1.175044509E1,-1.466017589E-2
1.177127922E1,-8.923664689E-3
1.179211334E1,5.137135740E-4
1.181294746E1,2.480539493E-3
1.183378158E1,-7.844546810E-3
1.185461571E1,-1.903258450E-2
1.187544983E1,-1.787166297E-2
1.189628395E1,-5.758892745E-3
1.191711807E1,5.202429835E-3
1.193795220E1,6.900841836E-3
1.195878632E1,5.407027900E-3
1.197962044E1,7.328694686E-3
1.200045456E1,9.807480499E-3
1.202128869E1,9.937215596E-3
1.204212281E1,7.533761673E-3
1.206295693E1,7.713492028E-3
1.208379105E1,9.833419695E-3
1.210462518E1,7.415979169E-3
1.212545930E1,3.358367831E-4
1.214629342E1,-1.194513589E-2
1.216712754E1,-2.489651926E-2
1.218796167E1,-3.476405889E-2
1.220879579E1,-4.400128871E-2
1.222962991E1,-4.979614913E-2
1.225046403E1,-5.045446008E-2
1.227129816E1,-4.761973023E-2
1.229213228E1,-4.373658448E-2
1.231296640E1,-4.052250460E-2
1.233380052E1,-3.845747560E-2
1.235463465E1,-4.080103338E-2
1.237546877E1,-4.758623242E-2
1.239630289E1,-5.219279230E-2
1.241713701E1,-4.964412376E-2
1.243797114E1,-4.276357964E-2
1.245880526E1,-3.597624972E-2
1.247963938E1,-2.977723256E-2
1.250047350E1,-2.574149519E-2
1.252130763E1,-2.640058473E-2
1.254214175E1,-2.704248391E-2
1.256297587E1,-1.822090335E-2
1.258380999E1,1.505992841E-3
1.260464412E1,2.126184478E-2
1.262547824E1,2.811879106E-2
1.264631236E1,2.090231143E-2
1.266714648E1,8.531646803E-3
1.268798061E1,4.057872575E-4
1.270881473E1,-1.186573762E-3
1.272964885E1,-1.806673594E-3
1.275048297E1,-2.485373290E-3
1.277131710E1,-3.049938940E-3
1.279215122E1,-5.113025662E-3
1.281298534E1,-7.612480782E-3
1.283381946E1,-1.432860643E-2
1.285465359E1,-2.462905273E-2
1.287548771E1,-3.221087158E-2
1.289632183E1,-3.771183267E-2
1.291715595E1,-4.072846472E-2
1.293799008E1,-4.088408500E-2
1.295882420E1,-4.236172885E-2
1.297965832E1,-4.620670900E-2
1.300049244E1,-5.162498355E-2
1.302132657E1,-5.614597350E-2
1.304216069E1,-5.974460766E-2
1.306299481E1,-6.427424401E-2
1.308382893E1,-6.403605640E-2
1.310466306E1,-5.770275742E-2
1.312549718E1,-5.275134370E-2
1.314633130E1,-5.466671661E-2
1.316716542E1,-6.353861839E-2
1.318799955E1,-7.217985392E-2
1.320883367E1,-7.756251097E-2
1.322966779E1,-8.505214006E-2
1.325050191E1,-9.517622739E-2
1.327133604E1,-1.007201523E-1
1.329217016E1,-9.789355099E-2
1.331300428E1,-9.291180968E-2
1.333383840E1,-8.793669194E-2
1.335467253E1,-8.148744702E-2
1.337550665E1,-7.864399254E-2
1.339634077E1,-8.271402121E-2
1.341717489E1,-8.828124404E-2
1.343800902E1,-8.640084416E-2
1.345884314E1,-8.044011891E-2
1.347967726E1,-8.120640367E-2
1.350051138E1,-8.650410920E-2
1.352134551E1,-8.623581380E-2
1.354217963E1,-7.700103521E-2
1.356301375E1,-6.588878483E-2
1.358384787E1,-6.103256345E-2
1.360468200E1,-6.035572290E-2
1.362551612E1,-6.128501147E-2
1.364635024E1,-6.572624296E-2
1.366718436E1,-7.246144861E-2
1.368801849E1,-7.764951885E-2
1.370885261E1,-7.742127776E-2
1.372968673E1,-7.412236929E-2
1.375052085E1,-7.387799770E-2
1.377135498E1,-7.508433610E-2
1.379218910E1,-7.041768730E-2
1.381302322E1,-5.930715799E-2
1.383385734E1,-5.229970440E-2
1.385469147E1,-5.645639822E-2
1.387552559E1,-6.453891098E-2
1.389635971E1,-6.446547061E-2
1.391719383E1,-5.748162419E-2
1.393802796E1,-5.358858407E-2
1.395886208E1,-5.265345424E-2
1.397969620E1,-4.818833992E-2
1.400053032E1,-3.794280440E-2
1.402136445E1,-2.829994075E-2
1.404219857E1,-2.625059523E-2
